    Wavelength  Flux
    microns     Jy
    2.3603   -0.1229
    2.3662   -0.0553
    2.3722   -0.0237
    2.3781   -0.0218
    2.3841   -0.0341
    2.3900   -0.0088
    2.3960    0.0405
    2.4020    0.1066
    2.4080    0.1841
    2.4140    0.2164
    2.4201    0.2014
    2.4261    0.1601
    2.4322    0.1177
    2.4383    0.0722
    2.4444    0.0231
    2.4505    0.0293
    2.4567    0.0631
    2.4628    0.1074
    2.4690    0.1440
    2.4752    0.1645
    2.4813    0.1727
    2.4876    0.1616
    2.4938    0.1387
    2.5000    0.0935
    2.5063    0.0585
    2.5126    0.0392
    2.5188    0.0483
    2.5252    0.1169
    2.5315    0.2015
    2.5378    0.2731
    2.5442    0.2907
    2.5505    0.2674
    2.5569    0.2144
    2.5633    0.1358
    2.5697    0.1054
    2.5762    0.0931
    2.5826    0.0884
    2.5891    0.0619
    2.5956    0.0132
    2.6021   -0.0719
    2.6086   -0.1563
    2.6151   -0.2104
    2.6216   -0.2259
    2.6282   -0.2231
    2.6348   -0.2134
    2.6414   -0.2041
    2.6480   -0.1748
    2.6546   -0.1296
    2.6613   -0.0775
    2.6679   -0.0391
    2.6746   -0.0224
    2.6813   -0.0189
    2.6880   -0.0112
    2.6947   -0.0116
    2.7015    0.0041
    2.7082    0.0178
    2.7150    0.0372
    2.7218    0.0523
    2.7286    0.0668
    2.7355    0.0780
    2.7423    0.1022
    2.7492    0.1208
    2.7561    0.1259
    2.7630    0.0991
    2.7699    0.0562
    2.7768    0.0132
    2.7838    0.0287
    2.7907    0.0681
    2.7977    0.1045
    2.8047    0.1447
    2.8117    0.1935
    2.8188    0.2315
    2.8258    0.2343
    2.8329    0.2186
    2.8400    0.1695
    2.8471    0.1130
    2.8542    0.1167
    2.8614    0.1370
    2.8685    0.1647
    2.8757    0.1741
    2.8829    0.1600
    2.8901    0.1269
    2.8974    0.0932
    2.9046    0.0812
    2.9119    0.0773
    2.9192    0.0862
    2.9265    0.0924
    2.9338    0.0949
    2.9412    0.0789
    2.9485    0.0560
    2.9559    0.0451
    2.9633    0.0483
    2.9707    0.0828
    2.9781    0.1099
    2.9856    0.1408
    2.9931    0.1540
    3.0006    0.1567
    3.0081    0.1530
    3.0156    0.1345
    3.0232    0.1059
    3.0307    0.0688
    3.0383    0.0449
    3.0459    0.0276
    3.0535    0.0218
    3.0612    0.0250
    3.0688    0.0267
    3.0765    0.0385
    3.0842    0.0582
    3.0919    0.0691
    3.0997    0.0655
    3.1074    0.0374
    3.1152    0.0036
    3.1230   -0.0160
    3.1308   -0.0060
    3.1387    0.0184
    3.1465    0.0492
    3.1544    0.0659
    3.1623    0.0659
    3.1702    0.0924
    3.1782    0.1178
    3.1861    0.1485
    3.1941    0.1601
    3.2021    0.1631
    3.2101    0.1603
    3.2181    0.1754
    3.2262    0.2173
    3.2343    0.2524
    3.2424    0.3052
    3.2505    0.3859
    3.2586    0.5072
    3.2668    0.6685
    3.2749    0.8244
    3.2831    0.9084
    3.2914    0.9001
    3.2996    0.8076
    3.3079    0.6651
    3.3161    0.5370
    3.3244    0.4505
    3.3328    0.3956
    3.3411    0.3557
    3.3495    0.3163
    3.3579    0.2723
    3.3663    0.2251
    3.3747    0.2105
    3.3831    0.2305
    3.3916    0.2716
    3.4001    0.3128
    3.4086    0.3237
    3.4171    0.2996
    3.4257    0.2505
    3.4343    0.2404
    3.4429    0.2514
    3.4515    0.2675
    3.4601    0.2707
    3.4688    0.2334
    3.4775    0.1958
    3.4862    0.1772
    3.4949    0.1851
    3.5036    0.1924
    3.5124    0.1813
    3.5212    0.1847
    3.5300    0.1863
    3.5388    0.2009
    3.5477    0.2277
    3.5566    0.2405
    3.5655    0.2316
    3.5744    0.2238
    3.5834    0.2299
    3.5923    0.2505
    3.6013    0.2660
    3.6103    0.2801
    3.6194    0.2824
    3.6284    0.2664
    3.6375    0.2770
    3.6466    0.2864
    3.6558    0.2781
    3.6649    0.2565
    3.6741    0.2177
    3.6833    0.2028
    3.6925    0.1947
    3.7017    0.2038
    3.7110    0.2054
    3.7203    0.2008
    3.7296    0.2179
    3.7389    0.2477
    3.7483    0.2740
    3.7577    0.2867
    3.7671    0.2746
    3.7765    0.2513
    3.7860    0.2424
    3.7954    0.2372
    3.8049    0.2443
    3.8145    0.2487
    3.8240    0.2582
    3.8336    0.2694
    3.8432    0.2971
    3.8528    0.3240
    3.8625    0.3342
    3.8721    0.3316
    3.8818    0.3279
    3.8915    0.3347
    3.9013    0.3471
    3.9110    0.3585
    3.9208    0.3330
    3.9306    0.3041
    3.9405    0.2807
    3.9503    0.3020
    3.9602    0.3287
    3.9701    0.3426
    3.9801    0.3400
    3.9900    0.3288
    4.0000    0.3280
    4.0100    0.3551
    4.0201    0.4066
    4.0301    0.4428
    4.0402    0.4519
    4.0503    0.4462
    4.0605    0.4689
    4.0706    0.4624
    4.0808    0.4714
    4.0911    0.4529
    4.1013    0.4308
    4.1116    0.3864
    4.1218    0.3422
    4.1322    0.2894
    4.1425    0.2018
    4.1529    0.1787
    4.1633    0.1647
    4.1737    0.2176
    4.1841    0.2825
    4.1946    0.4569
    4.2051    0.5623
    4.2156    0.5925
    4.2262    0.5401
    4.2368    0.4826
    4.2474    0.3785
    4.2580    0.2524
    4.2687    0.2260
    4.2794    0.2724
    4.2901    0.4428
    4.3008    0.6040
    4.3116    0.7449
    4.3224    0.6922
    4.3332    0.6377
    4.3440    0.7316
    4.3549    0.9965
    4.3658    1.2152
    4.3767    1.3898
    4.3877    1.4128
    4.3987    1.1985
    4.4097    0.9367
    4.4207    0.7662
    4.4318    0.7311
    4.4429    0.7770
    4.4540    0.8168
    4.4651    0.8092
    4.4763    0.7688
    4.4875    0.7499
    4.4988    0.7957
    4.5100    0.8756
    4.5213    0.9238
    4.5326    0.9603
    4.5440    1.0573
    4.5553    1.1649
    4.5668    1.0178
    4.5782    0.9012
    4.5896    0.9158
    4.6011    1.0291
    4.6126    1.0905
    4.6242    1.0243
    4.6358    0.8298
    4.6474    0.6385
    4.6590    0.6030
    4.6707    0.7700
    4.6824    0.9479
    4.6941    1.0108
    4.7058    0.9792
    4.7176    0.8254
    4.7294    0.6057
    4.7413    0.4472
    4.7531    0.4227
    4.7650    0.4734
    4.7769    0.4786
    4.7889    0.5056
    4.8009    0.4036
    4.8129    0.3558
    4.8250    0.4324
    4.8370    0.6182
    4.8491    0.7731
    4.8613    0.9134
    4.8734    0.9351
    4.8856    0.8400
    4.8979    0.7488
    4.9101    0.6762
    4.9224    0.7507
    4.9347    0.9489
    4.9471    1.2519
    4.9595    1.4809
    4.9719    1.6645
    4.9843    1.7483
    4.9968    1.7318
    5.0093    1.6774
    5.0219    1.6331
    5.0344    1.6099
    5.0470    1.6693
    5.0597    1.7238
    5.0723    1.7700
    5.0850    1.6280
    5.0978    1.4399
    5.1105    1.2319
    5.1233    1.1114
    5.1361    1.1869
    5.1490    1.4339
    5.1619    1.8336
    5.1748    2.1253
    5.1878    2.3087
    5.2007    2.4114
    5.2138    2.4059
    5.2268    2.4390
    5.2399    2.3789
    5.2530    2.1587
    5.2662    1.8653
    5.2793    1.5428
    5.2926    1.4146
    5.3058    1.5131
    5.3191    1.7248
    5.3324    1.9429
    5.3458    2.0892
    5.3591    2.1874
    5.3725    2.1430
    5.3860    1.9826
    5.3995    1.7523
    5.4130    1.4281
    5.4265    1.0720
    5.4401    0.7307
    5.4537    0.4730
    5.4674    0.3256
    5.4811    0.2740
    5.4948    0.3479
    5.5086    0.5838
    5.5223    0.7026
    5.5362    0.9664
    5.5500    1.1388
    5.5639    1.2551
    5.5778    1.2416
    5.5918    0.8512
    5.6058    0.9287
    5.6198    1.0797
    5.6339    1.2912
    5.6480    1.4986
    5.6621    1.4730
    5.6763    1.5414
    5.6905    1.7553
    5.7048    2.0875
    5.7190    2.3499
    5.7334    2.4249
    5.7477    2.4145
    5.7621    2.3426
    5.7765    2.2848
    5.7910    2.2820
    5.8055    2.2475
    5.8200    2.2353
    5.8346    2.2112
    5.8492    2.2892
    5.8638    2.4347
    5.8785    2.6026
    5.8932    2.7052
    5.9080    2.6882
    5.9228    2.5873
    5.9376    2.6193
    5.9524    2.7932
    5.9673    3.1701
    5.9823    3.3911
    5.9973    3.4119
    6.0123    3.3043
    6.0273    3.2190
    6.0424    3.1801
    6.0575    3.1377
    6.0727    3.0990
    6.0879    2.9902
    6.1031    3.0228
    6.1184    3.0482
    6.1337    3.1318
    6.1491    3.2935
    6.1645    3.5876
    6.1799    4.0298
    6.1954    4.3776
    6.2109    4.6157
    6.2264    4.6804
    6.2420    4.5803
    6.2576    4.4256
    6.2733    4.2206
    6.2890    4.0889
    6.3047    3.9341
    6.3205    3.7667
    6.3363    3.6781
    6.3522    3.6106
    6.3681    3.4188
    6.3840    3.1832
    6.4000    2.8828
    6.4160    2.8371
    6.4321    2.8158
    6.4482    3.0943
    6.4643    3.4218
    6.4805    3.5508
    6.4967    3.4646
    6.5130    3.2913
    6.5293    3.1244
    6.5457    2.8754
    6.5620    2.9129
    6.5785    3.0010
    6.5949    3.1246
    6.6114    3.2139
    6.6280    3.2494
    6.6446    3.1789
    6.6612    3.1669
    6.6779    3.2770
    6.6946    3.4331
    6.7114    3.5500
    6.7282    3.5690
    6.7450    3.5703
    6.7619    3.4898
    6.7788    3.4471
    6.7958    3.3735
    6.8128    3.3221
    6.8298    3.3271
    6.8469    3.4421
    6.8641    3.7864
    6.8813    4.1322
    6.8985    4.3884
    6.9158    4.5559
    6.9331    4.6062
    6.9504    4.5486
    6.9678    4.3115
    6.9853    4.0404
    7.0027    3.6982
    7.0203    3.4460
    7.0378    3.4700
    7.0555    3.5196
    7.0731    3.5793
    7.0908    3.6838
    7.1086    3.7217
    7.1264    3.7729
    7.1442    3.8497
    7.1621    3.9146
    7.1800    4.0142
    7.1980    4.0867
    7.2160    4.1634
    7.2341    4.2175
    7.2522    4.3373
    7.2703    4.4778
    7.2885    4.5889
    7.3068    4.6569
    7.3251    4.7264
    7.3434    4.8273
    7.3618    4.9537
    7.3802    5.1158
    7.3987    5.2936
    7.4172    5.4800
    7.4358    5.7216
    7.4544    6.0621
    7.4730    6.3446
    7.4917    6.5145
    7.5105    6.5247
    7.5293    6.4718
    7.5481    6.3938
    7.5670    6.3637
    7.5860    6.3960
    7.6050    6.4250
    7.6240    6.4541
    7.6431    6.3461
    7.6622    6.6977
    7.6814    7.0021
    7.7006    6.8417
    7.7199    6.7475
    7.7392    6.6844
    7.7586    6.6846
    7.7780    6.7541
    7.7975    6.8070
    7.8170    6.8316
    7.8366    6.7724
    7.8562    6.6885
    7.8759    6.6203
    7.8956    6.5845
    7.9153    6.5512
    7.9351    6.4405
    7.9550    6.3453
    7.9749    6.3546
    7.9949    6.3617
    8.0149    6.3439
    8.0350    6.1902
    8.0551    5.9078
    8.0752    5.6331
    8.0954    5.4822
    8.1157    5.4850
    8.1360    5.5447
    8.1564    5.6143
    8.1768    5.6510
    8.1973    5.6129
    8.2178    5.5664
    8.2384    5.4853
    8.2590    5.3816
    8.2797    5.2865
    8.3004    5.2695
    8.3212    5.2821
    8.3420    5.3450
    8.3629    5.4237
    8.3838    5.5112
    8.4048    5.6167
    8.4258    5.8321
    8.4469    6.1208
    8.4681    6.3938
    8.4893    6.5875
    8.5105    6.5802
    8.5318    6.4604
    8.5532    6.2847
    8.5746    6.1489
    8.5960    6.1039
    8.6176    6.0907
    8.6391    6.0645
    8.6608    5.9474
    8.6824    5.6922
    8.7042    5.5367
    8.7260    5.4237
    8.7478    5.3970
    8.7697    5.4775
    8.7916    5.6450
    8.8137    5.7517
    8.8357    5.7051
    8.8578    5.5062
    8.8800    5.1761
    8.9022    4.8500
    8.9245    4.7465
    8.9469    4.8101
    8.9693    4.9623
    8.9917    5.1090
    9.0142    5.2149
    9.0368    5.2698
    9.0594    5.3238
    9.0821    5.3165
    9.1048    5.3206
    9.1276    5.3296
    9.1504    5.3067
    9.1733    5.2808
    9.1963    5.2761
    9.2193    5.2351
    9.2424    5.2800
    9.2655    5.3732
    9.2887    5.4756
    9.3120    5.5521
    9.3353    5.6486
    9.3587    5.6526
    9.3821    5.6567
    9.4056    5.6930
    9.4291    5.7911
    9.4527    5.8945
    9.4764    6.1053
    9.5001    6.1911
    9.5239    6.2544
    9.5477    6.2847
    9.5716    6.2948
    9.5956    6.2747
    9.6196    6.2847
    9.6437    6.3895
    9.6678    6.5182
    9.6920    6.6738
    9.7163    6.7614
    9.7406    6.7320
    9.7650    6.6333
    9.7894    6.5708
    9.8139    6.5593
    9.8385    6.4398
    9.8631    6.3178
    9.8878    6.1957
    9.9126    6.1482
    9.9374    6.2362
    9.9622    6.4820
    9.9872    6.7812
   10.0122    7.0992
   10.0372    7.3464
   10.0624    7.4752
   10.0876    7.4269
   10.1128    7.3499
   10.1381    7.3502
   10.1635    7.4315
   10.1889    7.5305
   10.2144    7.6131
   10.2400    7.6660
   10.2656    7.6123
   10.2913    7.6042
   10.3171    7.5883
   10.3429    7.5938
   10.3688    7.5976
   10.3948    7.6123
   10.4208    7.6494
   10.4469    7.6990
   10.4730    7.7636
   10.4992    7.8005
   10.5255    7.8633
   10.5519    7.9663
   10.5783    8.1096
   10.6048    8.2215
   10.6313    8.2236
   10.6579    8.1625
   10.6846    8.1667
   10.7113    8.2694
   10.7381    8.5811
   10.7650    8.9194
   10.7920    9.2067
   10.8190    9.3696
   10.8461    9.5051
   10.8732    9.5249
   10.9004    9.5084
   10.9277    9.5964
   10.9551    9.8741
   10.9825   10.3033
   11.0100   10.8081
   11.0375   11.3022
   11.0652   11.5828
   11.0929   11.7320
   11.1206   11.9705
   11.1485   12.6227
   11.1764   13.6436
   11.2044   14.9329
   11.2324   16.2503
   11.2605   17.1509
   11.2887   17.5162
   11.3170   17.3654
   11.3453   16.9148
   11.3737   16.1572
   11.4022   15.2846
   11.4307   14.5483
   11.4593   13.9562
   11.4880   13.6384
   11.5167   13.5925
   11.5456   13.6356
   11.5745   13.5990
   11.6034   13.3458
   11.6325   13.0028
   11.6616   12.7349
   11.6908   12.8063
   11.7201   13.3052
   11.7494   13.9186
   11.7788   14.3455
   11.8083   14.4368
   11.8379   14.3573
   11.8675   14.1338
   11.8972   14.0448
   11.9270   14.0709
   11.9568   14.1896
   11.9868   14.2494
   12.0168   14.1511
   12.0468   13.9670
   12.0770   13.6533
   12.1072   13.6091
   12.1375   13.8163
   12.1679   14.1886
   12.1984   14.5426
   12.2289   14.9259
   12.2595   15.2796
   12.2902   15.7695
   12.3210   16.2489
   12.3518   16.8871
   12.3827   17.5046
   12.4137   18.2437
   12.4448   18.9632
   12.4759   19.4967
   12.5072   20.0197
   12.5385   20.3366
   12.5699   20.7850
   12.6013   21.3223
   12.6329   21.9253
   12.6645   22.6505
   12.6962   23.2261
   12.7280   23.6420
   12.7598   23.1386
   12.7918   22.7411
   12.8238   22.5901
   12.8559   22.7178
   12.8881   23.6570
   12.9203   23.4160
   12.9527   23.1138
   12.9851   22.6894
   13.0176   22.4733
   13.0502   22.6082
   13.0829   22.8740
   13.1156   23.2211
   13.1484   23.5472
   13.1813   23.8415
   13.2143   23.9292
   13.2474   23.9338
   13.2806   23.9422
   13.3138   24.0507
   13.3471   24.3316
   13.3806   24.7609
   13.4140   25.3008
   13.4476   25.7553
   13.4813   26.1455
   13.5150   26.4815
   13.5489   26.7518
   13.5828   27.0049
   13.6168   27.1502
   13.6509   27.2786
   13.6850   27.3995
   13.7193   27.4574
   13.7536   27.4466
   13.7881   27.3629
   13.8226   27.2932
   13.8572   27.2656
   13.8919   27.3896
   13.9266   27.6397
   13.9615   27.9243
   13.9964   28.3311
   14.0315   28.8529
   14.0666   29.5555
   14.1018   30.3175
   14.1371   30.9815
   14.1725   31.5648
   14.2080   31.9881
   14.2435   32.3716
   14.2792   32.9793
   14.3149   32.7761
   14.3508   33.5110
   14.3867   33.7072
   14.4227   33.7358
   14.4588   33.6619
   14.4950   33.5611
   14.5313   33.4949
   14.5676   33.5880
   14.6041   33.8579
   14.6407   34.3276
   14.6773   34.9386
   14.7140   35.6012
   14.7509   36.3610
   14.7878   36.9834
   14.8248   37.4113
   14.8619   37.5430
   14.8991   37.6018
   14.9364   37.8289
   14.9738   38.2487
   15.0113   38.8864
   15.0489   39.6314
   15.0865   40.4901
   15.1243   41.5708
   15.1622   42.9220
   15.2001   44.5487
   15.2382   46.1385
   15.2763   47.5529
   15.3145   48.7618
   15.3529   49.6089
   15.3913   50.1883
   15.4298   50.5134
   15.4684   50.7915
   15.5072   50.9576
   15.5460   49.8869
   15.5849   52.5758
   15.6239   53.3860
   15.6630   54.0144
   15.7022   54.7418
   15.7415   55.8173
   15.7809   57.3375
   15.8204   59.0278
   15.8600   60.5367
   15.8997   61.6288
   15.9395   62.2231
   15.9794   62.2742
   16.0194   62.0053
   16.0595   61.6808
   16.0997   61.6922
   16.1400   62.2212
   16.1804   63.4544
   16.2209   65.1275
   16.2615   66.7642
   16.3022   68.1370
   16.3430   69.1207
   16.3840   69.7408
   16.4250   70.0193
   16.4661   70.2641
   16.5073   70.6476
   16.5486   71.2485
   16.5900   72.1559
   16.6316   73.2228
   16.6732   74.1940
   16.7149   74.9685
   16.7568   75.7016
   16.7987   76.5083
   16.8408   77.4692
   16.8829   78.6080
   16.9252   80.0768
   16.9675   81.4810
   17.0100   82.7350
   17.0526   83.7637
   17.0953   84.7657
   17.1381   85.7642
   17.1810   86.9532
   17.2240   88.2882
   17.2671   89.5388
   17.3103   90.5249
   17.3536   91.5691
   17.3971   92.6596
   17.4406   93.9966
   17.4843   95.5097
   17.5281   97.1545
   17.5719   99.0411
   17.6159  101.0803
   17.6600  103.1555
   17.7042  105.2881
   17.7485  107.4429
   17.7930  109.6533
   17.8375  111.9310
   17.8821  114.1598
   17.9269  115.9559
   17.9718  117.5525
   18.0168  119.1559
   18.0619  120.8706
   18.1071  122.6761
   18.1524  124.2215
   18.1978  125.4873
   18.2434  126.3304
   18.2891  127.1702
   18.3348  128.1207
   18.3807  129.1720
   18.4267  130.4025
   18.4729  131.7696
   18.5191  133.5845
   18.5655  135.6525
   18.6119  137.8660
   18.6585  140.0795
   18.7052  142.2344
   18.7520  144.6259
   18.7990  146.8168
   18.8460  148.8074
   18.8932  150.3539
   18.9405  152.2328
   18.9879  154.2644
   19.0354  156.5128
   19.0831  158.0673
   19.1309  158.7469
   19.1787  159.0258
   19.2268  159.9585
   19.2749  162.0723
   19.3231  164.9094
   19.3715  167.9947
   19.4200  170.7780
   19.4686  173.1924
   19.5173  175.0599
   19.5662  176.4149
   19.6152  176.7718
   19.6643  176.0841
   19.7135  174.8152
   19.7628  173.2564
   19.8123  171.9776
   19.8619  171.2851
   19.9116  171.2135
   19.9614  171.5073
   20.0114  172.1824
   20.0615  173.0677
   20.1117  173.9642
   20.1621  175.1366
   20.2125  176.6048
   20.2631  178.4315
   20.3138  180.5220
   20.3647  183.1897
   20.4157  186.2715
   20.4668  189.3919
   20.5180  192.7906
   20.5694  195.7733
   20.6208  198.3987
   20.6725  200.4803
   20.7242  201.9878
   20.7761  202.9115
   20.8281  203.2595
   20.8802  203.6352
   20.9325  204.0987
   20.9849  204.9363
   21.0374  206.2304
   21.0901  207.8501
   21.1429  209.9894
   21.1958  212.3987
   21.2488  215.2890
   21.3020  218.3515
   21.3554  221.5194
   21.4088  224.4260
   21.4624  226.9386
   21.5161  229.0210
   21.5700  230.7856
   21.6240  232.6276
   21.6781  234.9883
   21.7324  237.2904
   21.7868  239.0900
   21.8413  239.9637
   21.8960  239.9301
   21.9508  239.7824
   22.0057  239.6469
   22.0608  240.7154
   22.1160  242.2049
   22.1714  244.3157
   22.2269  246.8579
   22.2825  249.7253
   22.3383  252.5103
   22.3942  254.9734
   22.4503  257.5758
   22.5065  260.2273
   22.5628  263.5119
   22.6193  267.1163
   22.6759  271.4574
   22.7327  276.0953
   22.7896  280.8067
   22.8466  285.1638
   22.9038  288.6946
   22.9611  291.7308
   23.0186  294.1506
   23.0762  296.7022
   23.1340  299.4865
   23.1919  302.4725
   23.2499  305.7734
   23.3081  309.1407
   23.3665  312.5520
   23.4250  316.1483
   23.4836  319.8938
   23.5424  323.5523
   23.6013  326.5068
   23.6604  328.4086
   23.7196  328.4347
   23.7790  326.5584
   23.8385  323.4351
   23.8982  319.7324
   23.9580  316.2644
   24.0180  313.9138
   24.0781  312.4814
   24.1384  311.4856
   24.1988  310.7472
   24.2594  310.3384
   24.3201  320.1224
   24.3810  321.5723
   24.4420  323.0816
   24.5032  323.7179
   24.5645  324.1754
   24.6260  324.4905
   24.6876  325.4205
   24.7494  327.0609
   24.8114  329.5555
   24.8735  332.5574
   24.9358  334.8983
   24.9982  335.6237
   25.0607  333.7893
   25.1235  330.3308
   25.1864  325.9165
   25.2494  322.1884
   25.3126  320.1058
   25.3760  320.1713
   25.4395  321.5108
   25.5032  323.0050
   25.5670  324.5791
   25.6310  325.9920
   25.6952  327.3598
   25.7595  329.3313
   25.8886  351.8561
   25.9534  352.0935
   26.0184  352.2819
   26.0835  352.7966
   26.1488  353.8538
   26.2142  355.2304
   26.2799  357.5224
   26.3456  360.3794
   26.4116  363.6436
   26.4777  367.0112
   26.5440  370.4970
   26.6104  373.7386
   26.6770  377.1504
   26.7438  380.7706
   26.8107  384.8575
   26.8779  389.0103
   26.9451  392.9152
   27.0126  396.2723
   27.0802  399.2210
   27.1480  402.9220
   27.2159  407.7803
   27.2841  414.0186
   27.3524  421.0583
   27.4208  427.8121
   27.4895  433.7137
   27.5583  438.2410
   27.6273  441.9260
   27.6964  445.5065
   27.7657  449.8833
   27.8352  455.5952
   27.9049  462.0284
   27.9748  468.0102
   28.0448  471.9272
   28.1150  473.0444
   28.1854  471.2254
   28.2559  467.4310
   28.3266  462.9753
   28.3975  459.9903
   28.4686  458.8791
   28.5399  460.6877
   28.6113  464.6101
   28.6829  470.0940
   28.7547  476.0013
   28.8267  482.7823
   28.8989  490.7044
   28.9712  498.1861
   29.0437  505.8842
   29.1164  513.7629
   29.1893  522.5844
   29.2624  532.1392
   29.3356  543.2443
   29.4091  555.0572
   29.4827  565.7189
   29.5565  575.3661
   29.6305  582.3486
   29.7046  586.5517
   29.7790  586.8813
   29.8535  582.8224
   29.9282  575.0379
   30.0032  566.3839
   30.0783  559.6569
   30.1536  558.1141
   30.2290  562.6554
   30.3047  571.5385
   30.3806  581.5172
   30.4566  588.6369
   30.5328  590.4337
   30.6093  585.2917
   30.6859  575.5496
   30.7627  564.7682
   30.8397  556.6755
   30.9169  553.6982
   30.9943  555.8805
   31.0719  559.1181
   31.1496  561.0427
   31.2276  560.0744
   31.3058  556.8520
   31.3841  554.0060
   31.4627  553.3967
   31.5415  555.5865
   31.6204  559.2927
   31.6996  563.9430
   31.7789  568.3465
   31.8585  573.2759
   31.9382  579.8611
   32.0181  589.1301
   32.0983  599.8564
   32.1786  611.3911
   32.2592  623.5381
   32.3399  637.1586
   32.4209  652.6390
   32.5020  670.1367
   32.5834  687.8278
   32.6650  703.1005
   32.7467  713.7280
   32.8287  719.7227
   32.9109  720.7009
   32.9932  718.8276
   33.0758  717.8657
   33.1586  721.8620
   33.2416  732.6243
   33.3248  750.0601
   33.4082  772.2126
   33.4919  794.4528
   33.5757  813.0455
   33.6598  825.8813
   33.7440  832.0698
   33.8285  831.2762
   33.9132  824.8429
   33.9980  813.5969
   34.0831  798.6172
   34.1685  780.7895
   34.2540  760.6639
   34.3397  739.5673
   34.4257  719.2202
   34.5119  701.7327
   34.5982  690.0378
   34.6848  684.5430
   34.7717  684.2211
   34.8587  686.3927
   34.9460  688.8329
   35.0334  689.5865
   35.1211  688.0219
   35.2090  684.6265
   35.2972  681.3650
   35.3855  678.7549
   35.4741  676.2576
   35.5629  673.0422
   35.6519  670.1189
   35.7412  668.2013
   35.8306  666.5099
   35.9203  664.4973
   36.0102  660.5704
   36.1004  655.8541
   36.1907  651.9491
   36.2813  651.0905
   36.3721  652.5194
   36.4632  654.0487
   36.5545  653.1320
   36.6460  647.7073
   36.7377  639.3651
   36.8296  629.8235
   36.9218  621.4424
   37.0142  616.9977
   37.1069  616.0859
   37.1998  615.5971
   37.2929  614.1512
   37.3862  612.2101
   37.4798  609.9511
   37.5736  608.9589
   37.6677  609.1459
   37.7620  610.6012
   37.8565  612.0719
   37.9513  613.7803
   38.0463  616.3111
   38.1415  619.5107
   38.2370  622.5741
   38.3327  625.1749
   38.4286  627.4895
   38.5248  628.9534
   38.6213  631.5256
   38.7179  635.1212
   38.8148  640.4844
   38.9120  646.5163
   39.0094  652.1611
   39.1071  657.4965
   39.2049  663.7037
   39.3031  671.7823
   39.4015  681.9495
   39.5001  693.1434
   39.5990  705.2515
   39.6981  716.9974
   39.7975  728.0349
   39.8971  739.3625
   39.9969  751.7196
   40.0971  764.7618
   40.1974  779.2355
   40.2980  792.3209
   40.3989  800.7925
   40.5000  801.7683
   40.6014  795.8156
   40.7030  784.0259
   40.8049  769.2137
   40.9071  754.6324
   41.0095  742.9764
   41.1121  735.0722
   41.2150  731.3944
   41.3182  731.6184
   41.4216  733.7078
   41.5253  735.1962
   41.6292  734.5190
   41.7335  732.1765
   41.8379  729.8461
   41.9426  730.0443
   42.0476  734.8804
   42.1529  744.9316
   42.2584  759.0787
   42.3642  775.7567
   42.4702  793.8608
   42.5765  811.3087
   42.6831  824.9666
   42.7899  834.0334
   42.8970  839.2604
   43.0044  841.7419
   43.1121  844.2231
   43.2200  848.6573
   43.3282  854.9212
   43.4366  860.3321
   43.5454  862.1883
   43.6544  857.7676
   43.7636  846.5549
   43.8732  832.5817
   43.9830  820.2695
   44.0931  813.8978
   44.2035  813.7534
   44.3141  818.0886
   44.4250  825.4689
   44.5362  830.2796
   44.6477  830.9811
   44.7595  826.5621
   44.8715  816.6243
   44.9838  808.3388
   45.0964  799.2894
   45.2093  789.3832
   45.3225  780.3816
   45.4359  770.1417
   45.5497  760.5684
   45.6637  754.8163
   45.7780  754.1857
   45.8926  755.4432
   46.0074  757.3191
   46.1226  758.7398
   46.2380  760.1889
   46.3538  761.4327
   46.4698  763.5499
   46.5861  766.1557
   46.7028  768.5929
   46.8197  773.6502
   46.9368  782.0776
   47.0543  794.0155
   47.1721  809.1806
   47.2902  826.3805
   47.4086  842.7708
   47.5272  855.3603
   47.6462  858.4521
   47.7655  855.3830
   47.8850  847.4642
   48.0049  839.5089
   48.1251  833.9176
   48.2455  831.5568
   48.3663  831.2032
   48.4874  831.1508
   48.6087  828.5604
   48.7304  821.3454
   48.8524  810.7228
   48.9747  801.9781
   49.0973  796.7527
   49.2201  797.2726
   49.3434  802.8393
   49.4669  809.8541
   49.5907  815.2468
   49.7148  819.3193
   49.8393  820.2172
   49.9640  821.6950
   50.0891  824.9313
   50.2145  830.1949
   50.3402  834.9305
   50.4662  838.9041
   50.5925  842.1830
   50.7191  844.7961
   50.8461  847.0851
   50.9734  849.3604
   51.1009  850.9098
   51.2289  851.7551
   51.3571  852.4777
   51.4856  853.2860
   51.6145  853.6733
   51.8732  864.1201
   52.0031  864.2355
   52.1333  864.8062
   52.2638  866.5569
   52.3946  866.7638
   52.5257  867.0125
   52.6572  867.6016
   52.7890  868.9865
   52.9212  871.2959
   53.0536  873.2841
   53.1864  873.7893
   53.3196  874.2728
   53.4530  875.9218
   53.5868  877.2850
   53.7210  877.3123
   53.8554  877.0172
   53.9902  875.7803
   54.1254  876.4147
   54.2609  879.1230
   54.3967  880.4882
   54.5328  878.8412
   54.6693  876.2575
   54.8062  875.7712
   54.9434  877.4080
   55.0809  879.6948
   55.2188  881.2803
   55.3570  881.8674
   55.4956  883.8043
   55.6345  887.4682
   55.7737  892.0170
   55.9133  895.5547
   56.0533  898.6058
   56.1936  900.3792
   56.3343  902.3136
   56.4753  904.2231
   56.6166  905.5773
   56.7584  906.6769
   56.9004  908.3099
   57.0429  909.1123
   57.1857  917.8945
   57.3288  926.0098
   57.4723  930.6453
   57.6162  931.2741
   57.7604  931.9607
   57.9050  932.4555
   58.0499  932.5726
   58.1952  932.6396
   58.3409  932.7013
   58.4869  933.4758
   58.6333  935.0733
   58.7801  937.3912
   58.9272  939.6441
   59.0747  941.8625
   59.2226  944.2880
   59.3708  946.8680
   59.5195  949.9863
   59.6684  953.0774
   59.8178  955.6191
   59.9675  957.0430
   60.1176  957.1894
   60.2681  957.1151
   60.4190  958.6102
   60.5702  961.1582
   60.7218  964.4427
   60.8738  967.7099
   61.0262  970.6914
   61.1790  973.5366
   61.3321  977.1895
   61.4856  981.1052
   61.6395  985.5646
   61.7938  988.1927
   61.9485  990.0745
   62.1036  990.9419
   62.2590  991.7681
   62.4148  992.2023
   62.5711  993.8551
   62.7277  994.7593
   62.8847  995.6324
   63.0421 1001.1653
   63.1999 1007.3599
   63.3581 1009.2527
   63.5167 1006.8300
   63.6757 1004.7315
   63.8351 1003.3364
   63.9949 1003.0578
   64.1551 1003.2710
   64.3157 1005.3256
   64.4767 1007.7356
   64.6380 1008.8906
   64.7998 1009.2615
   64.9620 1008.1341
   65.1247 1005.1782
   65.2877 1001.9839
   65.4511  998.4977
   65.6149  993.9276
   65.7792  991.0950
   65.9438  989.2529
   66.1089  988.0960
   66.2744  987.0716
   66.4403  985.3528
   66.6066  982.9728
   66.7733  980.8152
   66.9404  978.6837
   67.1080  976.4460
   67.2760  974.4222
   67.4444  973.1979
   67.6132  972.3781
   67.7824  971.6888
   67.9521  970.4926
   68.1222  968.5953
   68.2927  968.5371
   68.4637  972.4767
   68.6350  981.5271
   68.8068  987.7744
   68.9791  988.1046
   69.1517  980.6265
   69.3248  966.0840
   69.4984  952.6466
   69.6723  942.0649
   69.8467  935.1583
   70.0216  929.8950
   70.1968  925.1191
   70.3726  920.4706
   70.5487  916.1372
   70.7253  912.3345
   70.9023  908.6486
   71.0798  904.9846
   71.2577  900.0834
   71.4361  893.4653
   71.6149  887.6757
   71.7942  883.2879
   71.9739  879.8157
   72.1540  878.4717
   72.3346  877.3344
   72.5157  875.6461
   72.6972  871.6790
   72.8792  867.5081
   73.0616  863.7278
   73.2445  861.0096
   73.4278  860.4794
   73.6116  860.2755
   73.7959  859.1357
   73.9806  857.1020
   74.1658  854.6036
   74.3515  853.0372
   74.5376  850.7477
   74.7241  846.7062
   74.9112  841.8333
   75.0987  838.1104
   75.2867  836.0018
   75.4751  836.6287
   75.6641  837.7355
   75.8535  838.5287
   76.0433  838.4823
   76.2337  838.8098
   76.4245  839.2648
   76.6158  839.6624
   76.8076  837.6216
   76.9998  836.2301
   77.1926  834.0024
   77.3858  832.5557
   77.5795  830.0328
   77.7737  828.1150
   77.9684  824.4790
   78.1635  821.3297
   78.3592  817.8376
   78.5553  815.9873
   78.7520  815.5895
   78.9491  816.5550
   79.1467  818.8167
   79.3448  817.5629
   79.5434  815.5303
   79.7425  813.3456
   79.9422  810.5444
   80.1423  808.4694
   80.3429  807.2413
   80.5440  805.3200
   80.7456  803.4576
   80.9477  801.2681
   81.1503  799.1937
   81.3535  797.4172
   81.5571  795.4833
   81.7612  793.3027
   81.9659  790.0453
   82.1711  785.7814
   82.3768  781.0819
   82.5830  778.7972
   82.7897  780.0399
   82.9969  784.2830
   83.2047  788.4890
   83.4129  792.2206
   83.6217  792.0959
   83.8310  790.8594
   84.0409  790.6837
   84.2512  790.5798
   84.4621  789.7162
   84.6736  786.5872
   84.8855  783.3894
   85.0980  781.3900
   85.3110  782.6516
   85.5245  785.1640
   85.7386  786.5841
   85.9532  785.9227
   86.1684  782.6709
   86.3841  778.9280
   86.6003  774.9976
   86.8171  771.6536
   87.0344  769.0101
   87.2523  768.2443
   87.4707  770.1536
   87.6896  771.0385
   87.9091  771.0410
   88.1292  768.4302
   88.3497  766.5897
   88.5709  765.4131
   88.7926  763.7509
   89.0149  759.4495
   89.2377  753.5192
   89.4611  747.0704
   89.6850  744.8558
   89.9095  746.1886
   90.1345  749.8057
   90.3602  752.6346
   90.5863  750.6136
   90.8131  745.8899
   91.0404  740.6495
   91.2683  736.6547
   91.4967  736.3395
   91.7258  736.9641
   91.9554  737.6084
   92.1855  735.7567
   92.4163  732.3839
   92.6476  728.2357
   92.8795  723.8284
   93.1120  720.1678
   93.3451  714.3319
   93.5788  708.1588
   93.8130  701.0604
   94.0478  694.8257
   94.2832  690.5831
   94.5192  692.8449
   94.7558  696.5989
   94.9930  700.3892
   95.2308  701.8933
   95.4692  699.4394
   95.7081  695.0252
   95.9477  691.0200
   96.1879  687.8743
   96.4287  684.7281
   96.6700  681.0033
   96.9120  676.3759
   97.1546  672.5601
   97.3978  669.4125
   97.6416  666.0335
   97.8860  662.3539
   98.1310  658.0951
   98.3766  654.0812
   98.6229  650.5954
   98.8698  647.1446
   99.1172  643.3600
   99.3653  639.3842
   99.6141  635.8904
   99.8634  633.1568
  100.1134  631.6180
  100.3640  629.1277
  100.6152  626.2908
  100.8671  623.2327
  101.1195  619.6104
  101.3727  616.3101
  101.6264  614.0609
  101.8808  611.0974
  102.1358  606.1278
  102.3915  601.4755
  102.6478  596.2832
  102.9047  593.1473
  103.1623  591.5613
  103.4205  590.6863
  103.6794  589.5082
  103.9389  587.5319
  104.1991  584.9380
  104.4599  581.8339
  104.7214  578.0726
  104.9835  574.2243
  105.2463  570.7575
  105.5098  567.7444
  105.7739  565.2007
  106.0386  562.8300
  106.3041  560.8514
  106.5702  558.2164
  106.8369  555.3754
  107.1043  551.9869
  107.3724  548.6323
  107.6412  545.6591
  107.9106  543.4416
  108.1808  541.7693
  108.4515  540.1187
  108.7230  537.7215
  108.9952  534.6575
  109.2680  531.4016
  109.5415  528.0900
  109.8157  525.7104
  110.0906  523.5090
  110.3661  520.8456
  110.6424  517.9489
  110.9194  514.5745
  111.1970  512.4745
  111.4753  511.7287
  111.7544  511.4666
  112.0341  509.8589
  112.3146  506.7213
  112.5957  503.0628
  112.8775  499.3036
  113.1601  497.0870
  113.4433  494.5147
  113.7273  492.2128
  114.0120  488.5550
  114.2974  485.3512
  114.5835  482.2335
  114.8703  480.4593
  115.1578  479.2520
  115.4461  477.9000
  115.7350  475.6803
  116.0247  471.6854
  116.3152  467.3939
  116.6063  462.6469
  116.8982  459.2477
  117.1908  457.3042
  117.4842  456.2627
  117.7782  455.6881
  118.0731  454.7715
  118.3686  453.6075
  118.6649  452.4591
  118.9619  452.1311
  119.2597  451.7765
  119.5582  450.4980
  119.8575  447.7387
  120.1575  443.4195
  120.4583  438.8426
  120.7598  434.7187
  121.0621  431.6000
  121.3651  428.4062
  121.6689  424.7091
  121.9735  419.7125
  122.2788  414.6804
  122.5849  410.6402
  122.8917  407.8378
  123.1993  405.5234
  123.5077  404.7304
  123.8169  403.8637
  124.1268  402.6934
  124.4375  401.0712
  124.7490  398.9464
  125.0612  396.2678
  125.3743  394.1193
  125.6881  391.9150
  126.0027  389.3379
  126.3181  385.7970
  126.6343  381.7546
  126.9513  377.2941
  127.2691  373.7177
  127.5876  371.3711
  127.9070  369.7935
  128.2272  367.7313
  128.5482  365.1774
  128.8699  361.6359
  129.1925  358.7217
  129.5159  357.8931
  129.8401  358.4109
  130.1651  359.8245
  130.4909  360.5533
  130.8176  359.8100
  131.1450  357.2679
  131.4733  353.4722
  131.8024  349.1578
  132.1323  345.7156
  132.4630  343.2045
  132.7946  341.7094
  133.1270  340.9720
  133.4602  338.4452
  133.7943  336.4959
  134.1292  334.9053
  134.4650  334.6202
  134.8015  335.1703
  135.1390  334.9201
  135.4772  334.3311
  135.8163  332.5903
  136.1563  331.2214
  136.4971  330.9178
  136.8388  331.5999
  137.1813  331.1962
  137.5247  329.2812
  137.8690  324.8507
  138.2141  319.5712
  138.5600  314.8586
  138.9069  311.2082
  139.2546  309.5471
  139.6031  308.3787
  139.9526  307.4370
  140.3029  306.2767
  140.6541  305.3907
  141.0062  303.5804
  141.3591  301.8192
  141.7130  300.8623
  142.0677  300.0307
  142.4233  298.9040
  142.7798  298.2476
  143.1372  296.8119
  143.4955  295.2248
  143.8547  294.0674
  144.2148  292.7239
  144.5758  290.3918
  144.9377  287.5467
  145.3004  283.6888
  145.6642  278.8122
  146.0288  273.5469
  146.3943  269.7526
  146.7607  267.7414
  147.1281  267.5620
  147.4964  267.7116
  147.8656  267.6490
  148.2357  266.3688
  148.6068  265.2976
  148.9787  264.9503
  149.3517  264.8112
  149.7255  264.3460
  150.1003  262.9983
  150.4760  261.0723
  150.8527  259.6398
  151.2303  258.2368
  151.6088  256.1760
  151.9883  253.3878
  152.3688  250.0018
  152.7502  245.9848
  153.1325  243.4699
  153.5158  241.2014
  153.9001  238.6786
  154.2853  235.6814
  154.6715  232.8416
  155.0587  229.9427
  155.4468  227.3984
  155.8359  225.6352
  156.2260  222.4324
  156.6171  218.5175
  157.0091  213.9703
  157.4021  208.9091
  157.7961  206.0515
  158.1911  206.5884
  158.5871  210.0604
  158.9840  214.0237
  159.3820  216.9040
  159.7809  217.2798
  160.1809  215.3204
  160.5818  211.8877
  160.9838  208.1489
  161.3867  204.6077
  161.7907  202.1865
  162.1957  202.0350
  162.6017  202.2065
  163.0087  201.2030
  163.4167  198.6967
  163.8258  195.8900
  164.2359  193.4353
  164.6470  192.6148
  165.0591  193.0186
  165.4723  193.3733
  165.8865  193.2503
  166.3017  192.5716
  166.7180  190.8433
  167.1353  188.1913
  167.5537  185.6151
  167.9731  183.0148
  168.3935  180.7672
  168.8150  178.9441
  169.2376  176.9810
  169.6612  174.4160
  170.0859  171.8581
  170.5117  170.2913
  170.9385  168.1439
  171.3664  166.1512
  171.7953  164.0307
  172.2253  161.6587
  172.6564  160.4481
  173.0886  159.6932
  173.5219  159.2698
  173.9562  157.6056
  174.3917  156.3194
  174.8282  155.8686
  175.2658  155.9156
  175.7045  156.3498
  176.1443  156.1513
  176.5853  155.5270
  177.0273  154.6271
  177.4704  154.0038
  177.9146  153.6389
  178.3600  152.6434
  178.8064  152.2779
  179.2540  151.9536
  179.7027  152.1322
  180.1525  152.5657
  180.6035  152.2908
  181.0555  150.6411
  181.5087  147.2586
  181.9631  143.2014
  182.4185  139.9292
  182.8752  137.8308
  183.3329  138.7162
  183.7918  140.2885
  184.2519  142.0285
  184.7131  144.7720
  185.1754  147.4167
  185.6390  149.4974
  186.1037  149.6089
  186.5695  148.7468
  187.0365  146.4716
  187.5047  144.5388
  187.9740  144.6978
  188.4445  145.6773
  188.9162  145.4371
  189.3891  145.4783
  189.8632  144.0623
  190.3384  141.9717
  190.8149  139.6136
  191.2925  137.1168
  191.7713  135.0576
  192.2514  133.2702
  192.7326  132.6472
  193.2150  132.2092
  193.6987  130.4839
  194.1835  128.4312
  194.6696  123.2116
  195.1569  118.2053
  195.6454  113.1702
  196.1351  108.6018
  196.6261  104.8004
